

wavelength(nm), Y
1600, -25.3876
1599.96, -24.8368
1599.93, -24.3536
1599.89, -23.9302
1599.86, -23.5594
1599.82, -23.2348
1599.79, -22.951
1599.75, -22.7039
1599.72, -22.4903
1599.68, -22.3084
1599.64, -22.157
1599.61, -22.0359
1599.57, -21.9451
1599.54, -21.8847
1599.5, -21.8549
1599.47, -21.8559
1599.43, -21.8876
1599.4, -21.95
1599.36, -22.0434
1599.32, -22.1683
1599.29, -22.3261
1599.25, -22.5189
1599.22, -22.7497
1599.18, -23.0224
1599.15, -23.3419
1599.11, -23.7134
1599.08, -24.1424
1599.04, -24.6345
1599.01, -25.1952
1598.97, -25.83
1598.93, -26.5455
1598.9, -27.3501
1598.86, -28.2559
1598.83, -29.2817
1598.79, -30.4569
1598.76, -31.829
1598.72, -33.4774
1598.69, -35.5441
1598.65, -38.3149
1598.61, -42.5039
1598.58, -50.9313
1598.54, -51.9334
1598.51, -42.6218
1598.47, -38.0724
1598.44, -35.0616
1598.4, -32.8197
1598.37, -31.0467
1598.33, -29.5937
1598.3, -28.3751
1598.26, -27.3364
1598.22, -26.44
1598.19, -25.6588
1598.15, -24.9726
1598.12, -24.3664
1598.08, -23.8286
1598.05, -23.3508
1598.01, -22.9265
1597.98, -22.5508
1597.94, -22.2198
1597.9, -21.9301
1597.87, -21.6787
1597.83, -21.4629
1597.8, -21.2798
1597.76, -21.1271
1597.73, -21.0025
1597.69, -20.9046
1597.66, -20.8323
1597.62, -20.7859
1597.59, -20.7664
1597.55, -20.7759
1597.51, -20.817
1597.48, -20.8929
1597.44, -21.007
1597.41, -21.1619
1597.37, -21.3595
1597.34, -21.6007
1597.3, -21.8852
1597.27, -22.212
1597.23, -22.5796
1597.2, -22.9873
1597.16, -23.4351
1597.13, -23.925
1597.09, -24.4618
1597.05, -25.0532
1597.02, -25.7111
1596.98, -26.4525
1596.95, -27.2996
1596.91, -28.2849
1596.88, -29.4548
1596.84, -30.8766
1596.81, -32.6592
1596.77, -34.9998
1596.74, -38.3252
1596.7, -43.8995
1596.66, -57.3534
1596.63, -44.8124
1596.59, -38.6904
1596.56, -35.1179
1596.52, -32.6056
1596.49, -30.678
1596.45, -29.1238
1596.42, -27.8305
1596.38, -26.7318
1596.35, -25.7852
1596.31, -24.962
1596.28, -24.2413
1596.24, -23.6075
1596.2, -23.048
1596.17, -22.5524
1596.13, -22.1118
1596.1, -21.7188
1596.06, -21.367
1596.03, -21.0515
1595.99, -20.7688
1595.96, -20.5166
1595.92, -20.2942
1595.89, -20.1017
1595.85, -19.9405
1595.82, -19.8122
1595.78, -19.7186
1595.74, -19.6612
1595.71, -19.6404
1595.67, -19.6561
1595.64, -19.7068
1595.6, -19.7905
1595.57, -19.9047
1595.53, -20.047
1595.5, -20.2156
1595.46, -20.4099
1595.43, -20.6303
1595.39, -20.8787
1595.36, -21.1588
1595.32, -21.4753
1595.29, -21.8344
1595.25, -22.2435
1595.21, -22.7111
1595.18, -23.2467
1595.14, -23.8616
1595.11, -24.569
1595.07, -25.3861
1595.04, -26.3357
1595, -27.4505
1594.97, -28.7797
1594.93, -30.4024
1594.9, -32.4575
1594.86, -35.2204
1594.83, -39.3701
1594.79, -47.5102
1594.76, -49.9177
1594.72, -40.2615
1594.68, -35.712
1594.65, -32.7643
1594.61, -30.6042
1594.58, -28.9166
1594.54, -27.5452
1594.51, -26.4001
1594.47, -25.4237
1594.44, -24.5769
1594.4, -23.8317
1594.37, -23.1676
1594.33, -22.5699
1594.3, -22.0279
1594.26, -21.5344
1594.23, -21.0849
1594.19, -20.6768
1594.15, -20.3088
1594.12, -19.9807
1594.08, -19.6921
1594.05, -19.4428
1594.01, -19.2317
1593.98, -19.0574
1593.94, -18.9177
1593.91, -18.8087
1593.87, -18.7296
1593.84, -18.6786
1593.8, -18.6544
1593.77, -18.6565
1593.73, -18.685
1593.7, -18.741
1593.66, -18.8261
1593.63, -18.9421
1593.59, -19.0914
1593.55, -19.2761
1593.52, -19.4985
1593.48, -19.7608
1593.45, -20.0656
1593.41, -20.4157
1593.38, -20.8149
1593.34, -21.2684
1593.31, -21.7831
1593.27, -22.3686
1593.24, -23.0373
1593.2, -23.8063
1593.17, -24.6978
1593.13, -25.7425
1593.1, -26.9831
1593.06, -28.4834
1593.03, -30.3464
1592.99, -32.7596
1592.96, -36.1278
1592.92, -41.6303
1592.89, -54.9276
1592.85, -43.5759
1592.81, -37.3096
1592.78, -33.7282
1592.74, -31.2284
1592.71, -29.3102
1592.67, -27.7532
1592.64, -26.4418
1592.6, -25.3086
1592.57, -24.3121
1592.53, -23.4256
1592.5, -22.6316
1592.46, -21.9183
1592.43, -21.2776
1592.39, -20.7031
1592.36, -20.1897
1592.32, -19.7329
1592.29, -19.3282
1592.25, -18.9715
1592.22, -18.6591
1592.18, -18.3876
1592.15, -18.1543
1592.11, -17.957
1592.08, -17.7943
1592.04, -17.665
1592, -17.5684
1591.97, -17.504
1591.93, -17.4712
1591.9, -17.4693
1591.86, -17.4978
1591.83, -17.5559
1591.79, -17.6432
1591.76, -17.7597
1591.72, -17.9059
1591.69, -18.0832
1591.65, -18.294
1591.62, -18.5421
1591.58, -18.8322
1591.55, -19.1701
1591.51, -19.5629
1591.48, -20.0182
1591.44, -20.5443
1591.41, -21.15
1591.37, -21.8449
1591.34, -22.64
1591.3, -23.5492
1591.27, -24.5912
1591.23, -25.794
1591.2, -27.2014
1591.16, -28.8861
1591.13, -30.9784
1591.09, -33.7388
1591.05, -37.8055
1591.02, -45.551
1590.98, -49.5515
1590.95, -39.2536
1590.91, -34.4979
1590.88, -31.4026
1590.84, -29.1054
1590.81, -27.2823
1590.77, -25.7773
1590.74, -24.5037
1590.7, -23.4081
1590.67, -22.455
1590.63, -21.6194
1590.6, -20.8827
1590.56, -20.2308
1590.53, -19.6528
1590.49, -19.1402
1590.46, -18.6863
1590.42, -18.2857
1590.39, -17.9341
1590.35, -17.6278
1590.32, -17.3636
1590.28, -17.1384
1590.25, -16.9492
1590.21, -16.7933
1590.18, -16.6681
1590.14, -16.5714
1590.11, -16.5014
1590.07, -16.4571
1590.04, -16.4382
1590, -16.4455
1589.97, -16.4806
1589.93, -16.5459
1589.9, -16.6446
1589.86, -16.7802
1589.83, -16.9565
1589.79, -17.1768
1589.75, -17.4441
1589.72, -17.7605
1589.68, -18.1274
1589.65, -18.5458
1589.61, -19.0166
1589.58, -19.541
1589.54, -20.1219
1589.51, -20.7639
1589.47, -21.4752
1589.44, -22.2682
1589.4, -23.1613
1589.37, -24.1819
1589.33, -25.3707
1589.3, -26.7898
1589.26, -28.5409
1589.23, -30.8076
1589.19, -33.9788
1589.16, -39.1532
1589.12, -51.7163
1589.09, -41.8332
1589.05, -35.1572
1589.02, -31.3752
1588.98, -28.7406
1588.95, -26.7265
1588.91, -25.1043
1588.88, -23.7546
1588.84, -22.6073
1588.81, -21.6178
1588.77, -20.7565
1588.74, -20.0022
1588.7, -19.3394
1588.67, -18.756
1588.63, -18.2422
1588.6, -17.7895
1588.56, -17.3908
1588.53, -17.0395
1588.49, -16.7302
1588.46, -16.4581
1588.42, -16.2193
1588.39, -16.0113
1588.35, -15.8323
1588.32, -15.6815
1588.28, -15.5592
1588.25, -15.4664
1588.21, -15.4046
1588.18, -15.3753
1588.14, -15.3803
1588.11, -15.4207
1588.07, -15.4972
1588.04, -15.6098
1588, -15.7577
1587.97, -15.9401
1587.93, -16.1558
1587.9, -16.404
1587.86, -16.684
1587.83, -16.9967
1587.79, -17.3445
1587.76, -17.7311
1587.72, -18.1616
1587.69, -18.6426
1587.65, -19.1829
1587.62, -19.7935
1587.58, -20.488
1587.55, -21.284
1587.51, -22.2047
1587.48, -23.2825
1587.44, -24.5649
1587.41, -26.1271
1587.37, -28.0979
1587.34, -30.7288
1587.3, -34.619
1587.27, -41.9039
1587.23, -47.8098
1587.2, -36.7566
1587.16, -31.8522
1587.13, -28.7268
1587.09, -26.447
1587.06, -24.6679
1587.02, -23.2241
1586.99, -22.0225
1586.95, -21.0051
1586.92, -20.1323
1586.88, -19.3756
1586.85, -18.7134
1586.81, -18.1289
1586.78, -17.6091
1586.74, -17.1437
1586.71, -16.7251
1586.67, -16.3475
1586.64, -16.007
1586.6, -15.7013
1586.57, -15.4291
1586.53, -15.1899
1586.5, -14.9837
1586.46, -14.8107
1586.43, -14.6708
1586.39, -14.5639
1586.36, -14.4892
1586.32, -14.4458
1586.29, -14.4325
1586.25, -14.4484
1586.22, -14.4924
1586.18, -14.5642
1586.15, -14.6639
1586.11, -14.7923
1586.08, -14.9507
1586.04, -15.141
1586.01, -15.3656
1585.97, -15.6271
1585.94, -15.9285
1585.9, -16.273
1585.87, -16.6646
1585.83, -17.1079
1585.8, -17.6088
1585.76, -18.1754
1585.73, -18.8182
1585.69, -19.5518
1585.66, -20.3964
1585.62, -21.3801
1585.59, -22.5437
1585.55, -23.9485
1585.52, -25.693
1585.48, -27.9527
1585.45, -31.094
1585.41, -36.1229
1585.38, -47.8854
1585.34, -40.1738
1585.31, -33.2294
1585.27, -29.4407
1585.24, -26.8614
1585.2, -24.9228
1585.17, -23.3804
1585.13, -22.1058
1585.1, -21.023
1585.07, -20.0836
1585.03, -19.2552
1585, -18.5156
1584.96, -17.8496
1584.93, -17.2466
1584.89, -16.6992
1584.86, -16.2027
1584.82, -15.7532
1584.79, -15.3483
1584.75, -14.9863
1584.72, -14.6652
1584.68, -14.3832
1584.65, -14.1386
1584.61, -13.9296
1584.58, -13.755
1584.54, -13.6135
1584.51, -13.5043
1584.47, -13.427
1584.44, -13.3816
1584.4, -13.3679
1584.37, -13.3862
1584.33, -13.4362
1584.3, -13.518
1584.26, -13.6312
1584.23, -13.7757
1584.19, -13.9513
1584.16, -14.1585
1584.12, -14.3986
1584.09, -14.6737
1584.05, -14.9875
1584.02, -15.345
1583.98, -15.7531
1583.95, -16.2207
1583.91, -16.7584
1583.88, -17.3793
1583.84, -18.0989
1583.81, -18.936
1583.78, -19.914
1583.74, -21.064
1583.71, -22.4304
1583.67, -24.0824
1583.64, -26.1392
1583.6, -28.8334
1583.57, -32.7149
1583.53, -39.6729
1583.5, -47.9441
1583.46, -36.0306
1583.43, -30.9725
1583.39, -27.7982
1583.36, -25.4834
1583.32, -23.661
1583.29, -22.1588
1583.25, -20.8834
1583.22, -19.779
1583.18, -18.8101
1583.15, -17.9525
1583.11, -17.1894
1583.08, -16.5081
1583.04, -15.8987
1583.01, -15.3536
1582.97, -14.8666
1582.94, -14.4328
1582.9, -14.0483
1582.87, -13.7105
1582.84, -13.417
1582.8, -13.166
1582.77, -12.956
1582.73, -12.7852
1582.7, -12.6517
1582.66, -12.5531
1582.63, -12.4871
1582.59, -12.4511
1582.56, -12.4425
1582.52, -12.4596
1582.49, -12.501
1582.45, -12.5663
1582.42, -12.6564
1582.38, -12.7734
1582.35, -12.9205
1582.31, -13.1021
1582.28, -13.3236
1582.24, -13.5908
1582.21, -13.9098
1582.17, -14.2864
1582.14, -14.7262
1582.1, -15.2341
1582.07, -15.8147
1582.04, -16.473
1582, -17.2154
1581.97, -18.051
1581.93, -18.9936
1581.9, -20.0648
1581.86, -21.2983
1581.83, -22.7481
1581.79, -24.5044
1581.76, -26.731
1581.72, -29.7691
1581.69, -34.532
1581.65, -45.2201
1581.62, -39.8547
1581.58, -32.3225
1581.55, -28.2772
1581.51, -25.5119
1581.48, -23.4153
1581.44, -21.7324
1581.41, -20.3325
1581.37, -19.1396
1581.34, -18.1061
1581.31, -17.2003
1581.27, -16.4009
1581.24, -15.6928
1581.2, -15.0652
1581.17, -14.5103
1581.13, -14.0215
1581.1, -13.5933
1581.06, -13.2205
1581.03, -12.8977
1580.99, -12.6197
1580.96, -12.3813
1580.92, -12.1777
1580.89, -12.0047
1580.85, -11.859
1580.82, -11.7383
1580.78, -11.6418
1580.75, -11.5696
1580.72, -11.5234
1580.68, -11.5054
1580.65, -11.5188
1580.61, -11.5671
1580.58, -11.6533
1580.54, -11.7802
1580.51, -11.9496
1580.47, -12.1623
1580.44, -12.4182
1580.4, -12.7166
1580.37, -13.0567
1580.33, -13.4382
1580.3, -13.8617
1580.26, -14.3293
1580.23, -14.8452
1580.19, -15.4161
1580.16, -16.0516
1580.13, -16.7647
1580.09, -17.5727
1580.06, -18.4986
1580.02, -19.5739
1579.99, -20.8439
1579.95, -22.3779
1579.92, -24.293
1579.88, -26.811
1579.85, -30.4411
1579.81, -36.8465
1579.78, -47.4809
1579.74, -34.4528
1579.71, -29.035
1579.67, -25.6802
1579.64, -23.2497
1579.61, -21.3501
1579.57, -19.8005
1579.54, -18.5034
1579.5, -17.4006
1579.47, -16.4538
1579.43, -15.636
1579.4, -14.9264
1579.36, -14.3082
1579.33, -13.7675
1579.29, -13.2923
1579.26, -12.8726
1579.22, -12.5002
1579.19, -12.1688
1579.16, -11.8739
1579.12, -11.6125
1579.09, -11.383
1579.05, -11.1849
1579.02, -11.0186
1578.98, -10.8845
1578.95, -10.7834
1578.91, -10.7156
1578.88, -10.6808
1578.84, -10.6784
1578.81, -10.7072
1578.77, -10.766
1578.74, -10.8536
1578.71, -10.969
1578.67, -11.1121
1578.64, -11.284
1578.6, -11.4866
1578.57, -11.7227
1578.53, -11.9959
1578.5, -12.3103
1578.46, -12.6703
1578.43, -13.0801
1578.39, -13.5442
1578.36, -14.0674
1578.32, -14.6554
1578.29, -15.3157
1578.26, -16.0591
1578.22, -16.9014
1578.19, -17.8659
1578.15, -18.9883
1578.12, -20.3234
1578.08, -21.9609
1578.05, -24.0591
1578.01, -26.9382
1577.98, -31.4239
1577.94, -41.0728
1577.91, -38.3835
1577.87, -30.2379
1577.84, -26.0585
1577.81, -23.2754
1577.77, -21.2139
1577.74, -19.5969
1577.7, -18.2817
1577.67, -17.1838
1577.63, -16.2487
1577.6, -15.4388
1577.56, -14.7277
1577.53, -14.0963
1577.49, -13.531
1577.46, -13.0218
1577.43, -12.5618
1577.39, -12.1461
1577.36, -11.7711
1577.32, -11.4343
1577.29, -11.1334
1577.25, -10.8668
1577.22, -10.6326
1577.18, -10.4294
1577.15, -10.256
1577.11, -10.1117
1577.08, -9.99638
1577.05, -9.91059
1577.01, -9.85551
1576.98, -9.83281
1576.94, -9.84439
1576.91, -9.89198
1576.87, -9.97684
1576.84, -10.0995
1576.8, -10.2595
1576.77, -10.4558
1576.73, -10.6869
1576.7, -10.9512
1576.67, -11.2477
1576.63, -11.5765
1576.6, -11.9393
1576.56, -12.3399
1576.53, -12.7846
1576.49, -13.2828
1576.46, -13.847
1576.42, -14.4936
1576.39, -15.2434
1576.35, -16.1228
1576.32, -17.1662
1576.29, -18.42
1576.25, -19.9526
1576.22, -21.8753
1576.18, -24.3943
1576.15, -27.9723
1576.11, -34.0549
1576.08, -46.9381
1576.04, -33.4998
1576.01, -27.8694
1575.98, -24.5105
1575.94, -22.1262
1575.91, -20.2828
1575.87, -18.7835
1575.84, -17.5228
1575.8, -16.4384
1575.77, -15.4907
1575.73, -14.6541
1575.7, -13.9098
1575.66, -13.244
1575.63, -12.6466
1575.6, -12.1094
1575.56, -11.6261
1575.53, -11.1917
1575.49, -10.8027
1575.46, -10.4564
1575.42, -10.1515
1575.39, -9.88736
1575.35, -9.66388
1575.32, -9.48106
1575.29, -9.33857
1575.25, -9.23544
1575.22, -9.16991
1575.18, -9.13937
1575.15, -9.14063
1575.11, -9.17026
1575.08, -9.22502
1575.04, -9.30233
1575.01, -9.40063
1574.98, -9.51973
1574.94, -9.66099
1574.91, -9.82737
1574.87, -10.0234
1574.84, -10.2551
1574.8, -10.5295
1574.77, -10.8544
1574.73, -11.2379
1574.7, -11.6879
1574.67, -12.2124
1574.63, -12.819
1574.6, -13.516
1574.56, -14.3135
1574.53, -15.2249
1574.49, -16.27
1574.46, -17.479
1574.42, -18.9002
1574.39, -20.6138
1574.36, -22.7636
1574.32, -25.6404
1574.29, -29.9785
1574.25, -38.7401
1574.22, -39.0167
1574.18, -30.0645
1574.15, -25.6721
1574.11, -22.7735
1574.08, -20.6197
1574.05, -18.9144
1574.01, -17.5098
1573.98, -16.3211
1573.94, -15.2949
1573.91, -14.3959
1573.87, -13.5995
1573.84, -12.8889
1573.8, -12.2524
1573.77, -11.6817
1573.74, -11.1713
1573.7, -10.7172
1573.67, -10.316
1573.63, -9.96456
1573.6, -9.65964
1573.56, -9.39756
1573.53, -9.17438
1573.5, -8.98618
1573.46, -8.82928
1573.43, -8.70062
1573.39, -8.59806
1573.36, -8.52047
1573.32, -8.46791
1573.29, -8.44151
1573.25, -8.44335
1573.22, -8.47615
1573.19, -8.54297
1573.15, -8.64682
1573.12, -8.79034
1573.08, -8.97559
1573.05, -9.20393
1573.01, -9.47614
1572.98, -9.79267
1572.95, -10.1541
1572.91, -10.5614
1572.88, -11.0171
1572.84, -11.5249
1572.81, -12.0911
1572.77, -12.7244
1572.74, -13.4371
1572.7, -14.2466
1572.67, -15.1744
1572.64, -16.2498
1572.6, -17.515
1572.57, -19.0335
1572.53, -20.9095
1572.5, -23.3352
1572.46, -26.7318
1572.43, -32.3534
1572.4, -45.8543
1572.36, -33.4056
1572.33, -27.2733
1572.29, -23.6849
1572.26, -21.1438
1572.22, -19.1753
1572.19, -17.5701
1572.16, -16.2189
1572.12, -15.0586
1572.09, -14.0499
1572.05, -13.1667
1572.02, -12.3909
1571.98, -11.7084
1571.95, -11.1082
1571.92, -10.5805
1571.88, -10.1168
1571.85, -9.7098
1571.81, -9.35293
1571.78, -9.04081
1571.74, -8.76919
1571.71, -8.53485
1571.67, -8.33552
1571.64, -8.16974
1571.61, -8.03657
1571.57, -7.93542
1571.54, -7.86581
1571.5, -7.82723
1571.47, -7.81907
1571.43, -7.8406
1571.4, -7.89113
1571.37, -7.97015
1571.33, -8.07753
1571.3, -8.21377
1571.26, -8.38013
1571.23, -8.57879
1571.19, -8.81285
1571.16, -9.08626
1571.13, -9.40363
1571.09, -9.76999
1571.06, -10.1906
1571.02, -10.6706
1570.99, -11.2154
1570.95, -11.8306
1570.92, -12.523
1570.89, -13.3015
1570.85, -14.179
1570.82, -15.1749
1570.78, -16.3189
1570.75, -17.658
1570.71, -19.2695
1570.68, -21.2895
1570.65, -23.9871
1570.61, -28.0175
1570.58, -35.8316
1570.54, -39.2364
1570.51, -29.1219
1570.48, -24.4072
1570.44, -21.3467
1570.41, -19.0948
1570.37, -17.3298
1570.34, -15.8942
1570.3, -14.6981
1570.27, -13.6844
1570.24, -12.8142
1570.2, -12.0592
1570.17, -11.3985
1570.13, -10.8161
1570.1, -10.3001
1570.06, -9.84091
1570.03, -9.43158
1570, -9.06663
1569.96, -8.74181
1569.93, -8.45383
1569.89, -8.20002
1569.86, -7.97827
1569.82, -7.78685
1569.79, -7.62447
1569.76, -7.49031
1569.72, -7.38406
1569.69, -7.30648
1569.65, -7.25926
1569.62, -7.24256
1569.58, -7.25824
1569.55, -7.30836
1569.52, -7.39495
1569.48, -7.51973
1569.45, -7.68385
1569.41, -7.88774
1569.38, -8.13118
1569.35, -8.4134
1569.31, -8.73348
1569.28, -9.09075
1569.24, -9.48538
1569.21, -9.91885
1569.17, -10.3946
1569.14, -10.9183
1569.11, -11.4988
1569.07, -12.1486
1569.04, -12.8846
1569, -13.7298
1568.97, -14.7152
1568.94, -15.8843
1568.9, -17.301
1568.87, -19.0671
1568.83, -21.3644
1568.8, -24.5768
1568.76, -29.7867
1568.73, -42.2951
1568.7, -32.7824
1568.66, -26.1451
1568.63, -22.4325
1568.59, -19.8717
1568.56, -17.9291
1568.52, -16.3729
1568.49, -15.0818
1568.46, -13.9845
1568.42, -13.0358
1568.39, -12.2055
1568.35, -11.4725
1568.32, -10.8217
1568.29, -10.2415
1568.25, -9.72317
1568.22, -9.25976
1568.18, -8.84564
1568.15, -8.47631
1568.11, -8.14825
1568.08, -7.85879
1568.05, -7.60609
1568.01, -7.38903
1567.98, -7.20703
1567.94, -7.05993
1567.91, -6.94769
1567.88, -6.8702
1567.84, -6.82703
1567.81, -6.81736
1567.77, -6.83989
1567.74, -6.89302
1567.71, -6.97496
1567.67, -7.08408
1567.64, -7.21917
1567.6, -7.37974
1567.57, -7.56625
1567.53, -7.78031
1567.5, -8.02476
1567.47, -8.30369
1567.43, -8.62239
1567.4, -8.98725
1567.36, -9.40569
1567.33, -9.88607
1567.3, -10.4378
1567.26, -11.0715
1567.23, -11.8
1567.19, -12.6391
1567.16, -13.61
1567.13, -14.7425
1567.09, -16.0816
1567.06, -17.6992
1567.02, -19.7198
1566.99, -22.3866
1566.95, -26.2754
1566.92, -33.395
1566.89, -40.4775
1566.85, -29.0228
1566.82, -24.0626
1566.78, -20.9366
1566.75, -18.6676
1566.72, -16.8988
1566.68, -15.4598
1566.65, -14.2568
1566.61, -13.2305
1566.58, -12.341
1566.55, -11.5608
1566.51, -10.87
1566.48, -10.2537
1566.44, -9.70128
1566.41, -9.20467
1566.38, -8.75822
1566.34, -8.35793
1566.31, -8.00103
1566.27, -7.68553
1566.24, -7.4098
1566.2, -7.17237
1566.17, -6.97165
1566.14, -6.8059
1566.1, -6.67327
1566.07, -6.5719
1566.03, -6.5001
1566, -6.45652
1565.97, -6.44035
1565.93, -6.45136
1565.9, -6.49
1565.86, -6.55735
1565.83, -6.65502
1565.8, -6.78506
1565.76, -6.94978
1565.73, -7.15163
1565.69, -7.3931
1565.66, -7.67674
1565.63, -8.00515
1565.59, -8.38124
1565.56, -8.80844
1565.52, -9.2911
1565.49, -9.83493
1565.46, -10.4476
1565.42, -11.1396
1565.39, -11.925
1565.35, -12.823
1565.32, -13.8605
1565.29, -15.0758
1565.25, -16.5265
1565.22, -18.3055
1565.18, -20.5783
1565.15, -23.6885
1565.12, -28.563
1565.08, -39.5135
1565.05, -33.7784
1565.01, -26.4315
1564.98, -22.4976
1564.95, -19.8208
1564.91, -17.7972
1564.88, -16.1734
1564.84, -14.8198
1564.81, -13.6616
1564.78, -12.6529
1564.74, -11.7635
1564.71, -10.9736
1564.67, -10.2691
1564.64, -9.64037
1564.61, -9.07985
1564.57, -8.58163
1564.54, -8.14063
1564.5, -7.75226
1564.47, -7.41228
1564.44, -7.11679
1564.4, -6.86227
1564.37, -6.6457
1564.33, -6.46457
1564.3, -6.31694
1564.27, -6.20141
1564.23, -6.11707
1564.2, -6.06337
1564.16, -6.04005
1564.13, -6.04703
1564.1, -6.08434
1564.06, -6.15211
1564.03, -6.25059
1563.99, -6.38022
1563.96, -6.54174
1563.93, -6.73633
1563.89, -6.96575
1563.86, -7.23246
1563.82, -7.53975
1563.79, -7.89174
1563.76, -8.29346
1563.72, -8.75085
1563.69, -9.27077
1563.65, -9.86112
1563.62, -10.532
1563.59, -11.2946
1563.55, -12.1622
1563.52, -13.1539
1563.48, -14.297
1563.45, -15.6326
1563.42, -17.2268
1563.38, -19.1938
1563.35, -21.7534
1563.31, -25.4111
1563.28, -31.8132
1563.25, -42.663
1563.21, -29.5854
1563.18, -24.1607
1563.14, -20.8113
1563.11, -18.3889
1563.08, -16.4971
1563.04, -14.9539
1563.01, -13.6607
1562.97, -12.5581
1562.94, -11.6072
1562.91, -10.7809
1562.87, -10.059
1562.84, -9.42583
1562.81, -8.869
1562.77, -8.37845
1562.74, -7.94605
1562.7, -7.56519
1562.67, -7.23056
1562.64, -6.93791
1562.6, -6.68384
1562.57, -6.46561
1562.53, -6.28101
1562.5, -6.12819
1562.47, -6.00565
1562.43, -5.91221
1562.4, -5.84699
1562.36, -5.80949
1562.33, -5.79965
1562.3, -5.81792
1562.26, -5.86529
1562.23, -5.94326
1562.19, -6.05384
1562.16, -6.19938
1562.13, -6.38244
1562.09, -6.60556
1562.06, -6.87111
1562.03, -7.18118
1561.99, -7.5375
1561.96, -7.94163
1561.92, -8.39518
1561.89, -8.90029
1561.86, -9.46018
1561.82, -10.0799
1561.79, -10.7671
1561.75, -11.5334
1561.72, -12.3959
1561.69, -13.3792
1561.65, -14.5198
1561.62, -15.8732
1561.59, -17.5279
1561.55, -19.6387
1561.52, -22.5172
1561.48, -26.9605
1561.45, -36.3362
1561.42, -34.5165
1561.38, -26.151
1561.35, -21.9066
1561.31, -19.08
1561.28, -16.9763
1561.25, -15.3142
1561.21, -13.9514
1561.18, -12.8055
1561.14, -11.8247
1561.11, -10.974
1561.08, -10.229
1561.04, -9.57204
